SpectraSuite Data File
++++++++++++++++++++++++++++++++++++
Date: Fri Apr 06 14:15:56 GMT-03:00 2018
User: Diogo
Dark Spectrum Present: Yes
Reference Spectrum Present: Yes
Number of Sampled Component Spectra: 1
Spectrometers: USB4J00421
Integration Time (usec): 2559908 (USB4J00421)
Spectra Averaged: 10 (USB4J00421)
Boxcar Smoothing: 5 (USB4J00421)
Correct for Electrical Dark: No (USB4J00421)
Strobe/Lamp Enabled: No (USB4J00421)
Correct for Detector Non-linearity: No (USB4J00421)
Correct for Stray Light: No (USB4J00421)
Number of Pixels in Processed Spectrum: 3648
>>>>>Begin Processed Spectral Data<<<<<
177,28	-292,000
177,50	-292,000
177,72	-292,000
177,94	93,038
178,16	-208,929
178,37	-775,879
178,59	-7757,143
178,81	-1396,330
179,03	-647,699
179,25	-390,649
179,47	-446,562
179,69	-72,727
179,90	-25,679
180,12	-17,528
180,34	-12,351
180,56	-11,837
180,78	-5,502
181,00	-3,970
181,22	-6,085
181,43	-3,694
181,65	-2,655
181,87	-2,177
182,09	-3,023
182,31	-3,478
182,53	-3,435
182,74	-4,108
182,96	-3,382
183,18	-4,765
183,40	-4,603
183,62	-2,290
183,84	-3,569
184,05	-4,676
184,27	-4,374
184,49	-3,672
184,71	-3,380
184,93	-2,711
185,15	-1,263
185,36	-0,575
185,58	-0,122
185,80	0,137
186,02	0,677
186,24	0,975
186,45	2,264
186,67	2,701
186,89	2,122
187,11	1,689
187,33	2,120
187,55	1,078
187,76	-0,154
187,98	-0,321
188,20	-0,228
188,42	-2,353
188,64	-2,710
188,85	-3,978
189,07	-4,278
189,29	-4,335
189,51	-5,368
189,73	-6,040
189,94	-6,065
190,16	-6,071
190,38	-5,601
190,60	-8,495
190,82	-7,676
191,03	-5,147
191,25	-3,866
191,47	-4,605
191,69	-3,653
191,91	-3,678
192,12	-4,518
192,34	-4,007
192,56	-2,552
192,78	-3,150
193,00	-0,184
193,21	-0,256
193,43	-2,305
193,65	-1,969
193,87	-0,650
194,09	-2,112
194,30	-0,983
194,52	-0,982
194,74	-1,432
194,96	-2,638
195,17	-2,478
195,39	-3,674
195,61	-2,866
195,83	-2,733
196,05	-3,851
196,26	-4,570
196,48	-4,219
196,70	-4,790
196,92	-3,358
197,13	-2,512
197,35	-2,089
197,57	-2,381
197,79	-1,070
198,01	-1,751
198,22	-1,664
198,44	-1,495
198,66	-1,426
198,88	-1,107
199,09	-1,565
199,31	-2,434
199,53	-2,598
199,75	-2,476
199,96	-0,600
200,18	-0,316
200,40	-0,642
200,62	-0,506
200,83	0,416
201,05	0,656
201,27	-0,004
201,49	0,047
201,70	-0,663
201,92	-1,232
202,14	-1,088
202,36	-2,629
202,57	-3,681
202,79	-3,517
203,01	-3,333
203,23	-3,350
203,44	-4,691
203,66	-4,795
203,88	-3,939
204,10	-3,296
204,31	-3,649
204,53	-3,632
204,75	-3,428
204,97	-4,376
205,18	-4,299
205,40	-4,437
205,62	-5,941
205,84	-4,781
206,05	-4,512
206,27	-5,121
206,49	-4,613
206,71	-3,793
206,92	-4,101
207,14	-3,857
207,36	-2,163
207,57	-1,854
207,79	-2,370
208,01	-0,031
208,23	0,015
208,44	-0,089
208,66	0,795
208,88	0,174
209,10	0,147
209,31	0,516
209,53	0,301
209,75	-0,485
209,96	-0,812
210,18	-1,215
210,40	-2,444
210,62	-2,625
210,83	-2,464
211,05	-2,738
211,27	-1,773
211,48	-1,392
211,70	-1,330
211,92	-1,148
212,14	-0,567
212,35	0,057
212,57	0,555
212,79	0,885
213,00	1,572
213,22	2,124
213,44	-1,907
213,65	-1,581
213,87	-1,467
214,09	-1,170
214,31	-0,678
214,52	-0,548
214,74	0,107
214,96	0,546
215,17	0,808
215,39	0,962
215,61	1,088
215,82	2,920
216,04	3,002
216,26	3,199
216,47	3,312
216,69	3,317
216,91	3,422
217,13	3,326
217,34	3,348
217,56	3,437
217,78	3,449
217,99	3,478
218,21	3,602
218,43	3,630
218,64	3,604
218,86	3,601
219,08	3,669
219,29	3,662
219,51	3,618
219,73	3,670
219,94	3,551
220,16	3,535
220,38	3,557
220,59	3,511
220,81	3,518
221,03	3,522
221,24	3,515
221,46	3,529
221,68	3,542
221,89	3,549
222,11	3,531
222,33	3,583
222,54	3,602
222,76	3,570
222,98	3,594
223,19	3,601
223,41	3,600
223,63	3,620
223,84	3,622
224,06	3,632
224,28	3,658
224,49	3,641
224,71	3,676
224,93	3,680
225,14	3,690
225,36	3,680
225,57	3,647
225,79	3,654
226,01	3,645
226,22	3,631
226,44	3,624
226,66	3,605
226,87	3,637
227,09	3,632
227,31	3,624
227,52	3,638
227,74	3,627
227,96	3,620
228,17	3,629
228,39	3,633
228,60	3,635
228,82	3,630
229,04	3,644
229,25	3,613
229,47	3,613
229,69	3,608
229,90	3,599
230,12	3,614
230,33	3,636
230,55	3,598
230,77	3,567
230,98	3,552
231,20	3,554
231,42	3,523
231,63	3,524
231,85	3,515
232,06	3,498
232,28	3,475
232,50	3,451
232,71	3,447
232,93	3,456
233,15	3,463
233,36	3,450
233,58	3,442
233,79	3,456
234,01	3,457
234,23	3,452
234,44	3,480
234,66	3,479
234,87	3,485
235,09	3,469
235,31	3,470
235,52	3,467
235,74	3,484
235,95	3,488
236,17	3,488
236,39	3,483
236,60	3,482
236,82	3,468
237,03	3,481
237,25	3,482
237,47	3,490
237,68	3,501
237,90	3,506
238,11	3,494
238,33	3,495
238,55	3,490
238,76	3,493
238,98	3,492
239,19	3,494
239,41	3,491
239,62	3,491
239,84	3,493
240,06	3,472
240,27	3,485
240,49	3,496
240,70	3,494
240,92	3,490
241,13	3,483
241,35	3,471
241,57	3,475
241,78	3,473
242,00	3,470
242,21	3,460
242,43	3,462
242,64	3,450
242,86	3,438
243,08	3,431
243,29	3,434
243,51	3,438
243,72	3,442
243,94	3,427
244,15	3,423
244,37	3,423
244,59	3,421
244,80	3,427
245,02	3,415
245,23	3,419
245,45	3,421
245,66	3,410
245,88	3,408
246,09	3,410
246,31	3,424
246,53	3,428
246,74	3,424
246,96	3,422
247,17	3,420
247,39	3,431
247,60	3,422
247,82	3,419
248,03	3,432
248,25	3,419
248,46	3,418
248,68	3,410
248,90	3,418
249,11	3,413
249,33	3,418
249,54	3,422
249,76	3,419
249,97	3,425
250,19	3,425
250,40	3,418
250,62	3,428
250,83	3,421
251,05	3,412
251,26	3,394
251,48	3,391
251,69	3,381
251,91	3,382
252,13	3,381
252,34	3,381
252,56	3,380
252,77	3,377
252,99	3,375
253,20	3,371
253,42	3,373
253,63	3,378
253,85	3,388
254,06	3,399
254,28	3,397
254,49	3,393
254,71	3,388
254,92	3,389
255,14	3,388
255,35	3,380
255,57	3,375
255,78	3,380
256,00	3,377
256,21	3,376
256,43	3,372
256,64	3,369
256,86	3,382
257,07	3,386
257,29	3,385
257,50	3,382
257,72	3,391
257,93	3,402
258,15	3,397
258,36	3,401
258,58	3,398
258,79	3,409
259,01	3,410
259,22	3,401
259,44	3,398
259,65	3,393
259,87	3,400
260,08	3,402
260,30	3,396
260,51	3,393
260,73	3,396
260,94	3,390
261,16	3,381
261,37	3,376
261,59	3,391
261,80	3,393
262,02	3,399
262,23	3,397
262,45	3,387
262,66	3,389
262,87	3,399
263,09	3,405
263,30	3,411
263,52	3,405
263,73	3,403
263,95	3,390
264,16	3,388
264,38	3,384
264,59	3,391
264,81	3,401
265,02	3,414
265,24	3,415
265,45	3,388
265,67	3,389
265,88	3,398
266,09	3,411
266,31	3,415
266,52	3,425
266,74	3,439
266,95	3,446
267,17	3,459
267,38	3,464
267,60	3,476
267,81	3,507
268,03	3,528
268,24	3,565
268,45	3,579
268,67	3,587
268,88	3,605
269,10	3,626
269,31	3,647
269,53	3,658
269,74	3,678
269,96	3,693
270,17	3,721
270,38	3,728
270,60	3,720
270,81	3,737
271,03	3,739
271,24	3,750
271,46	3,755
271,67	3,759
271,88	3,775
272,10	3,795
272,31	3,794
272,53	3,794
272,74	3,797
272,96	3,797
273,17	3,782
273,38	3,791
273,60	3,785
273,81	3,771
274,03	3,762
274,24	3,748
274,46	3,718
274,67	3,714
274,88	3,694
275,10	3,687
275,31	3,682
275,53	3,683
275,74	3,688
275,95	3,680
276,17	3,681
276,38	3,685
276,60	3,682
276,81	3,678
277,02	3,669
277,24	3,677
277,45	3,667
277,67	3,654
277,88	3,645
278,09	3,634
278,31	3,625
278,52	3,625
278,74	3,613
278,95	3,610
279,16	3,611
279,38	3,612
279,59	3,601
279,81	3,606
280,02	3,603
280,23	3,606
280,45	3,599
280,66	3,598
280,88	3,588
281,09	3,598
281,30	3,596
281,52	3,592
281,73	3,596
281,94	3,605
282,16	3,607
282,37	3,620
282,59	3,621
282,80	3,640
283,01	3,661
283,23	3,694
283,44	3,711
283,65	3,746
283,87	3,783
284,08	3,814
284,30	3,841
284,51	3,887
284,72	3,920
284,94	3,963
285,15	3,998
285,36	4,041
285,58	4,065
285,79	4,092
286,01	4,114
286,22	4,146
286,43	4,175
286,65	4,218
286,86	4,241
287,07	4,285
287,29	4,326
287,50	4,375
287,71	4,410
287,93	4,461
288,14	4,509
288,35	4,554
288,57	4,597
288,78	4,638
288,99	4,676
289,21	4,712
289,42	4,744
289,63	4,782
289,85	4,800
290,06	4,842
290,28	4,872
290,49	4,896
290,70	4,922
290,92	4,949
291,13	4,978
291,34	4,998
291,56	5,027
291,77	5,042
291,98	5,044
292,20	5,061
292,41	5,045
292,62	5,010
292,84	5,016
293,05	5,012
293,26	5,004
293,47	4,990
293,69	4,978
293,90	4,962
294,11	4,942
294,33	4,936
294,54	4,929
294,75	4,935
294,97	4,970
295,18	4,964
295,39	4,956
295,61	4,958
295,82	4,964
296,03	4,969
296,25	4,970
296,46	4,989
296,67	5,004
296,89	5,021
297,10	5,102
297,31	5,122
297,52	5,142
297,74	5,176
297,95	5,199
298,16	5,218
298,38	5,253
298,59	5,287
298,80	5,305
299,02	5,323
299,23	5,331
299,44	5,291
299,65	5,290
299,87	5,296
300,08	5,295
300,29	5,289
300,51	5,295
300,72	5,282
300,93	5,276
301,14	5,282
301,36	5,269
301,57	5,268
301,78	5,245
302,00	5,229
302,21	5,212
302,42	5,197
302,63	5,201
302,85	5,197
303,06	5,186
303,27	5,165
303,49	5,139
303,70	5,119
303,91	5,091
304,12	5,066
304,34	5,049
304,55	5,030
304,76	5,019
304,97	4,983
305,19	4,952
305,40	4,936
305,61	4,922
305,82	4,908
306,04	4,905
306,25	4,897
306,46	4,906
306,68	4,914
306,89	4,912
307,10	4,899
307,31	4,893
307,53	4,899
307,74	4,889
307,95	4,886
308,16	4,891
308,38	4,881
308,59	4,886
308,80	4,872
309,01	4,866
309,23	4,871
309,44	4,883
309,65	4,886
309,86	4,876
310,07	4,879
310,29	4,875
310,50	4,877
310,71	4,891
310,92	4,885
311,14	4,881
311,35	4,878
311,56	4,871
311,77	4,855
311,99	4,867
312,20	4,853
312,41	4,839
312,62	4,831
312,84	4,805
313,05	4,777
313,26	4,758
313,47	4,746
313,68	4,722
313,90	4,697
314,11	4,686
314,32	4,665
314,53	4,658
314,75	4,655
314,96	4,667
315,17	4,676
315,38	4,697
315,59	4,725
315,81	4,723
316,02	4,739
316,23	4,761
316,44	4,769
316,65	4,717
316,87	4,732
317,08	4,741
317,29	4,731
317,50	4,739
317,71	4,731
317,93	4,727
318,14	4,742
318,35	4,745
318,56	4,744
318,77	4,745
318,99	4,801
319,20	4,800
319,41	4,809
319,62	4,824
319,83	4,829
320,05	4,845
320,26	4,865
320,47	4,875
320,68	4,887
320,89	4,916
321,11	4,938
321,32	4,970
321,53	4,983
321,74	4,993
321,95	4,987
322,16	4,982
322,38	4,962
322,59	4,931
322,80	4,906
323,01	4,886
323,22	4,851
323,43	4,823
323,65	4,793
323,86	4,769
324,07	4,741
324,28	4,737
324,49	4,721
324,70	4,711
324,92	4,691
325,13	4,688
325,34	4,690
325,55	4,686
325,76	4,678
325,97	4,670
326,19	4,673
326,40	4,668
326,61	4,670
326,82	4,682
327,03	4,689
327,24	4,711
327,46	4,721
327,67	4,713
327,88	4,718
328,09	4,722
328,30	4,736
328,51	4,743
328,72	4,751
328,94	4,745
329,15	4,741
329,36	4,743
329,57	4,739
329,78	4,736
329,99	4,746
330,20	4,743
330,42	4,742
330,63	4,737
330,84	4,727
331,05	4,725
331,26	4,723
331,47	4,719
331,68	4,715
331,89	4,705
332,11	4,705
332,32	4,694
332,53	4,685
332,74	4,681
332,95	4,671
333,16	4,661
333,37	4,654
333,58	4,635
333,80	4,624
334,01	4,608
334,22	4,594
334,43	4,567
334,64	4,547
334,85	4,535
335,06	4,523
335,27	4,498
335,48	4,478
335,70	4,451
335,91	4,436
336,12	4,419
336,33	4,411
336,54	4,407
336,75	4,418
336,96	4,414
337,17	4,412
337,38	4,406
337,59	4,411
337,81	4,421
338,02	4,428
338,23	4,437
338,44	4,439
338,65	4,448
338,86	4,454
339,07	4,438
339,28	4,446
339,49	4,443
339,70	4,444
339,91	4,447
340,13	4,445
340,34	4,450
340,55	4,455
340,76	4,450
340,97	4,450
341,18	4,452
341,39	4,464
341,60	4,455
341,81	4,464
342,02	4,471
342,23	4,468
342,44	4,459
342,65	4,468
342,87	4,468
343,08	4,474
343,29	4,469
343,50	4,468
343,71	4,468
343,92	4,472
344,13	4,468
344,34	4,464
344,55	4,468
344,76	4,480
344,97	4,485
345,18	4,485
345,39	4,492
345,60	4,492
345,81	4,495
346,02	4,500
346,23	4,500
346,45	4,505
346,66	4,508
346,87	4,519
347,08	4,523
347,29	4,513
347,50	4,523
347,71	4,519
347,92	4,528
348,13	4,532
348,34	4,530
348,55	4,534
348,76	4,541
348,97	4,549
349,18	4,551
349,39	4,561
349,60	4,560
349,81	4,559
350,02	4,577
350,23	4,575
350,44	4,574
350,65	4,578
350,86	4,590
351,07	4,590
351,28	4,586
351,49	4,581
351,70	4,574
351,91	4,577
352,12	4,570
352,33	4,559
352,55	4,567
352,76	4,569
352,97	4,576
353,18	4,569
353,39	4,562
353,60	4,568
353,81	4,582
354,02	4,522
354,23	4,536
354,44	4,526
354,65	4,531
354,86	4,539
355,07	4,550
355,28	4,546
355,49	4,557
355,70	4,569
355,91	4,570
356,12	4,559
356,33	4,622
356,54	4,621
356,75	4,655
356,96	4,665
357,17	4,666
357,38	4,667
357,59	4,673
357,80	4,665
358,01	4,665
358,22	4,672
358,43	4,666
358,64	4,683
358,85	4,684
359,05	4,681
359,26	4,674
359,47	4,672
359,68	4,670
359,89	4,676
360,10	4,695
360,31	4,713
360,52	4,716
360,73	4,732
360,94	4,726
361,15	4,732
361,36	4,737
361,57	4,741
361,78	4,735
361,99	4,742
362,20	4,748
362,41	4,750
362,62	4,740
362,83	4,740
363,04	4,750
363,25	4,763
363,46	4,773
363,67	4,774
363,88	4,777
364,09	4,787
364,30	4,791
364,51	4,792
364,72	4,784
364,93	4,787
365,13	4,793
365,34	4,796
365,55	4,801
365,76	4,795
365,97	4,804
366,18	4,815
366,39	4,833
366,60	4,830
366,81	4,834
367,02	4,846
367,23	4,853
367,44	4,866
367,65	4,870
367,86	4,814
368,07	4,817
368,28	4,810
368,49	4,809
368,69	4,794
368,90	4,804
369,11	4,805
369,32	4,804
369,53	4,808
369,74	4,807
369,95	4,804
370,16	4,864
370,37	4,869
370,58	4,875
370,79	4,881
371,00	4,888
371,21	4,890
371,41	4,895
371,62	4,898
371,83	4,898
372,04	4,886
372,25	4,898
372,46	4,903
372,67	4,902
372,88	4,910
373,09	4,922
373,30	4,931
373,51	4,939
373,71	4,937
373,92	4,936
374,13	4,935
374,34	4,941
374,55	4,939
374,76	4,942
374,97	4,959
375,18	4,957
375,39	4,958
375,59	4,953
375,80	4,947
376,01	4,961
376,22	4,971
376,43	4,983
376,64	4,994
376,85	5,004
377,06	5,011
377,27	5,015
377,47	5,025
377,68	5,019
377,89	5,033
378,10	5,047
378,31	5,062
378,52	5,065
378,73	5,067
378,94	5,074
379,14	5,069
379,35	5,071
379,56	5,072
379,77	5,074
379,98	5,076
380,19	5,081
380,40	5,078
380,61	5,064
380,81	5,066
381,02	5,073
381,23	5,077
381,44	5,084
381,65	5,087
381,86	5,089
382,07	5,073
382,27	5,077
382,48	5,079
382,69	5,087
382,90	5,083
383,11	5,093
383,32	5,099
383,52	5,096
383,73	5,108
383,94	5,102
384,15	5,107
384,36	5,131
384,57	5,139
384,78	5,130
384,98	5,130
385,19	5,141
385,40	5,136
385,61	5,139
385,82	5,147
386,03	5,156
386,23	5,195
386,44	5,191
386,65	5,205
386,86	5,210
387,07	5,301
387,28	5,307
387,48	5,319
387,69	5,322
387,90	5,333
388,11	5,286
388,32	5,280
388,52	5,263
388,73	5,269
388,94	5,265
389,15	5,272
389,36	5,201
389,57	5,199
389,77	5,206
389,98	5,210
390,19	5,215
390,40	5,269
390,61	5,277
390,81	5,278
391,02	5,291
391,23	5,293
391,44	5,297
391,65	5,301
391,85	5,313
392,06	5,318
392,27	5,332
392,48	5,328
392,69	5,328
392,89	5,331
393,10	5,324
393,31	5,311
393,52	5,313
393,73	5,312
393,93	5,326
394,14	5,320
394,35	5,327
394,56	5,327
394,76	5,333
394,97	5,335
395,18	5,337
395,39	5,348
395,60	5,368
395,80	5,377
396,01	5,391
396,22	5,385
396,43	5,404
396,63	5,406
396,84	5,412
397,05	5,401
397,26	5,407
397,47	5,398
397,67	5,407
397,88	5,400
398,09	5,390
398,30	5,387
398,50	5,358
398,71	5,356
398,92	5,345
399,13	5,338
399,33	5,348
399,54	5,357
399,75	5,378
399,96	5,378
400,16	5,384
400,37	5,400
400,58	5,401
400,79	5,423
400,99	5,404
401,20	5,412
401,41	5,412
401,62	5,420
401,82	5,412
402,03	5,385
402,24	5,385
402,45	5,384
402,65	5,388
402,86	5,382
403,07	5,389
403,28	5,393
403,48	5,396
403,69	5,427
403,90	5,416
404,10	5,417
404,31	5,423
404,52	5,422
404,73	5,414
404,93	5,408
405,14	5,421
405,35	5,425
405,56	5,441
405,76	5,432
405,97	5,403
406,18	5,403
406,38	5,402
406,59	5,422
406,80	5,426
407,01	5,445
407,21	5,456
407,42	5,444
407,63	5,443
407,83	5,445
408,04	5,458
408,25	5,467
408,46	5,479
408,66	5,505
408,87	5,490
409,08	5,481
409,28	5,468
409,49	5,462
409,70	5,467
409,90	5,475
410,11	5,472
410,32	5,472
410,52	5,467
410,73	5,458
410,94	5,453
411,15	5,471
411,35	5,488
411,56	5,494
411,77	5,493
411,97	5,500
412,18	5,478
412,39	5,484
412,59	5,488
412,80	5,487
413,01	5,504
413,21	5,501
413,42	5,499
413,63	5,498
413,83	5,507
414,04	5,504
414,25	5,505
414,45	5,523
414,66	5,522
414,87	5,516
415,07	5,535
415,28	5,521
415,49	5,521
415,69	5,519
415,90	5,528
416,11	5,523
416,31	5,536
416,52	5,525
416,73	5,527
416,93	5,532
417,14	5,557
417,35	5,544
417,55	5,553
417,76	5,551
417,97	5,561
418,17	5,552
418,38	5,559
418,59	5,559
418,79	5,564
419,00	5,570
419,20	5,567
419,41	5,559
419,62	5,564
419,82	5,579
420,03	5,598
420,24	5,611
420,44	5,616
420,65	5,624
420,86	5,643
421,06	5,644
421,27	5,634
421,47	5,639
421,68	5,647
421,89	5,669
422,09	5,650
422,30	5,642
422,51	5,625
422,71	5,640
422,92	5,636
423,12	5,618
423,33	5,652
423,54	5,675
423,74	5,685
423,95	5,670
424,16	5,663
424,36	5,669
424,57	5,665
424,77	5,680
424,98	5,673
425,19	5,680
425,39	5,697
425,60	5,677
425,80	5,681
426,01	5,683
426,22	5,699
426,42	5,702
426,63	5,720
426,83	5,716
427,04	5,721
427,25	5,730
427,45	5,736
427,66	5,732
427,86	5,743
428,07	5,737
428,27	5,735
428,48	5,734
428,69	5,755
428,89	5,756
429,10	5,763
429,30	5,783
429,51	5,791
429,72	5,787
429,92	5,799
430,13	5,791
430,33	5,792
430,54	5,809
430,74	5,814
430,95	5,800
431,16	5,795
431,36	5,807
431,57	5,779
431,77	5,760
431,98	5,745
432,18	5,712
432,39	5,712
432,60	5,731
432,80	5,707
433,01	5,699
433,21	5,702
433,42	5,698
433,62	5,695
433,83	5,682
434,03	5,675
434,24	5,648
434,45	5,622
434,65	5,585
434,86	5,529
435,06	5,505
435,27	5,492
435,47	5,473
435,68	5,467
435,88	5,452
436,09	5,450
436,29	5,457
436,50	5,497
436,71	5,537
436,91	5,584
437,12	5,641
437,32	5,690
437,53	5,702
437,73	5,724
437,94	5,739
438,14	5,751
438,35	5,769
438,55	5,770
438,76	5,768
438,96	5,773
439,17	5,791
439,37	5,796
439,58	5,769
439,78	5,780
439,99	5,789
440,19	5,817
440,40	5,822
440,60	5,822
440,81	5,845
441,02	5,849
441,22	5,853
441,43	5,845
441,63	5,844
441,84	5,866
442,04	5,871
442,25	5,849
442,45	5,835
442,66	5,828
442,86	5,797
443,07	5,778
443,27	5,763
443,48	5,721
443,68	5,718
443,89	5,691
444,09	5,677
444,30	5,679
444,50	5,693
444,70	5,686
444,91	5,690
445,11	5,741
445,32	5,751
445,52	5,763
445,73	5,783
445,93	5,839
446,14	5,849
446,34	5,756
446,55	5,735
446,75	5,740
446,96	5,715
447,16	5,694
447,37	5,672
447,57	5,659
447,78	5,631
447,98	5,630
448,19	5,570
448,39	5,603
448,60	5,704
448,80	5,732
449,00	5,715
449,21	5,717
449,41	5,721
449,62	5,730
449,82	5,708
450,03	5,699
450,23	5,693
450,44	5,653
450,64	5,596
450,85	5,584
451,05	5,558
451,25	5,568
451,46	5,545
451,66	5,554
451,87	5,527
452,07	5,561
452,28	5,599
452,48	5,590
452,69	5,695
452,89	5,718
453,09	5,728
453,30	5,745
453,50	5,763
453,71	5,829
453,91	5,838
454,12	5,850
454,32	5,832
454,52	5,817
454,73	5,829
454,93	5,766
455,14	5,798
455,34	5,779
455,55	5,791
455,75	5,799
455,95	5,802
456,16	5,792
456,36	5,784
456,57	5,806
456,77	5,835
456,98	5,862
457,18	5,865
457,38	5,857
457,59	5,909
457,79	5,908
458,00	5,910
458,20	5,922
458,40	5,944
458,61	5,980
458,81	5,972
459,02	5,967
459,22	5,982
459,42	5,983
459,63	5,974
459,83	5,988
460,04	5,991
460,24	5,975
460,44	5,956
460,65	5,983
460,85	6,005
461,06	6,018
461,26	5,999
461,46	6,003
461,67	6,008
461,87	6,052
462,07	6,039
462,28	6,038
462,48	6,048
462,69	6,063
462,89	6,042
463,09	6,025
463,30	6,034
463,50	6,067
463,70	6,052
463,91	6,051
464,11	6,013
464,32	6,027
464,52	6,032
464,72	6,054
464,93	6,079
465,13	6,080
465,33	6,079
465,54	6,096
465,74	6,092
465,94	6,119
466,15	6,147
466,35	6,178
466,55	6,187
466,76	6,203
466,96	6,186
467,17	6,171
467,37	6,183
467,57	6,199
467,78	6,193
467,98	6,202
468,18	6,195
468,39	6,204
468,59	6,212
468,79	6,210
469,00	6,222
469,20	6,236
469,40	6,251
469,61	6,255
469,81	6,254
470,01	6,247
470,22	6,258
470,42	6,252
470,62	6,232
470,83	6,217
471,03	6,229
471,23	6,213
471,44	6,217
471,64	6,203
471,84	6,227
472,05	6,220
472,25	6,225
472,45	6,230
472,65	6,251
472,86	6,260
473,06	6,254
473,26	6,164
473,47	6,165
473,67	6,166
473,87	6,177
474,08	6,176
474,28	6,194
474,48	6,202
474,69	6,205
474,89	6,188
475,09	6,195
475,29	6,217
475,50	6,291
475,70	6,284
475,90	6,282
476,11	6,305
476,31	6,309
476,51	6,302
476,72	6,288
476,92	6,283
477,12	6,308
477,32	6,315
477,53	6,291
477,73	6,283
477,93	6,301
478,14	6,309
478,34	6,297
478,54	6,299
478,74	6,316
478,95	6,326
479,15	6,333
479,35	6,330
479,55	6,325
479,76	6,357
479,96	6,378
480,16	6,369
480,37	6,374
480,57	6,370
480,77	6,358
480,97	6,364
481,18	6,383
481,38	6,393
481,58	6,405
481,78	6,426
481,99	6,428
482,19	6,441
482,39	6,474
482,59	6,474
482,80	6,478
483,00	6,500
483,20	6,492
483,40	6,486
483,61	6,481
483,81	6,486
484,01	6,462
484,21	6,457
484,42	6,450
484,62	6,446
484,82	6,461
485,02	6,464
485,23	6,466
485,43	6,465
485,63	6,474
485,83	6,481
486,03	6,470
486,24	6,466
486,44	6,469
486,64	6,466
486,84	6,465
487,05	6,445
487,25	6,451
487,45	6,426
487,65	6,430
487,85	6,414
488,06	6,416
488,26	6,409
488,46	6,425
488,66	6,426
488,87	6,432
489,07	6,421
489,27	6,424
489,47	6,415
489,67	6,421
489,88	6,405
490,08	6,413
490,28	6,389
490,48	6,399
490,68	6,393
490,89	6,372
491,09	6,358
491,29	6,359
491,49	6,351
491,69	6,350
491,90	6,356
492,10	6,365
492,30	6,372
492,50	6,399
492,70	6,385
492,90	6,379
493,11	6,385
493,31	6,378
493,51	6,375
493,71	6,380
493,91	6,380
494,12	6,369
494,32	6,371
494,52	6,373
494,72	6,350
494,92	6,359
495,12	6,347
495,33	6,348
495,53	6,356
495,73	6,355
495,93	6,354
496,13	6,341
496,33	6,349
496,54	6,354
496,74	6,329
496,94	6,336
497,14	6,338
497,34	6,343
497,54	6,361
497,75	6,361
497,95	6,356
498,15	6,339
498,35	6,342
498,55	6,338
498,75	6,330
498,95	6,358
499,16	6,378
499,36	6,393
499,56	6,432
499,76	6,434
499,96	6,457
500,16	6,478
500,36	6,516
500,57	6,526
500,77	6,520
500,97	6,538
501,17	6,519
501,37	6,511
501,57	6,510
501,77	6,498
501,97	6,497
502,18	6,469
502,38	6,475
502,58	6,484
502,78	6,479
502,98	6,506
503,18	6,512
503,38	6,533
503,58	6,536
503,79	6,542
503,99	6,543
504,19	6,549
504,39	6,578
504,59	6,575
504,79	6,564
504,99	6,575
505,19	6,581
505,39	6,571
505,59	6,577
505,80	6,591
506,00	6,592
506,20	6,611
506,40	6,613
506,60	6,601
506,80	6,603
507,00	6,615
507,20	6,623
507,40	6,625
507,60	6,640
507,81	6,615
508,01	6,609
508,21	6,598
508,41	6,586
508,61	6,568
508,81	6,579
509,01	6,576
509,21	6,569
509,41	6,577
509,61	6,574
509,81	6,574
510,01	6,597
510,21	6,596
510,42	6,585
510,62	6,592
510,82	6,623
511,02	6,624
511,22	6,626
511,42	6,630
511,62	6,628
511,82	6,635
512,02	6,658
512,22	6,658
512,42	6,667
512,62	6,699
512,82	6,703
513,02	6,689
513,22	6,698
513,42	6,709
513,62	6,708
513,83	6,711
514,03	6,706
514,23	6,694
514,43	6,706
514,63	6,695
514,83	6,690
515,03	6,677
515,23	6,710
515,43	6,725
515,63	6,742
515,83	6,783
516,03	6,794
516,23	6,803
516,43	6,793
516,63	6,815
516,83	6,840
517,03	6,867
517,23	6,875
517,43	6,854
517,63	6,844
517,83	6,834
518,03	6,817
518,23	6,812
518,43	6,823
518,63	6,835
518,83	6,824
519,03	6,818
519,23	6,811
519,43	6,840
519,63	6,855
519,83	6,875
520,03	6,863
520,23	6,859
520,43	6,857
520,63	6,848
520,83	6,847
521,03	6,842
521,23	6,856
521,43	6,845
521,63	6,818
521,83	6,815
522,03	6,817
522,23	6,823
522,43	6,828
522,63	6,829
522,83	6,835
523,03	6,850
523,23	6,869
523,43	6,877
523,63	6,894
523,83	6,916
524,03	6,910
524,23	6,911
524,43	6,934
524,63	6,925
524,83	6,950
525,03	6,971
525,23	6,987
525,43	6,996
525,63	6,996
525,83	6,990
526,03	6,982
526,23	6,996
526,43	7,000
526,63	7,033
526,83	7,046
527,03	7,024
527,23	7,019
527,43	7,021
527,63	7,008
527,83	7,013
528,02	7,017
528,22	7,023
528,42	7,047
528,62	7,062
528,82	7,018
529,02	7,013
529,22	7,023
529,42	7,019
529,62	6,991
529,82	7,007
530,02	7,002
530,22	7,010
530,42	7,010
530,62	6,988
530,82	6,962
531,02	6,963
531,22	6,979
531,41	7,010
531,61	7,023
531,81	7,024
532,01	7,007
532,21	7,005
532,41	6,991
532,61	6,993
532,81	6,991
533,01	6,998
533,21	7,016
533,41	7,154
533,61	7,129
533,80	7,126
534,00	7,149
534,20	7,148
534,40	7,164
534,60	7,174
534,80	7,191
535,00	7,216
535,20	7,233
535,40	7,228
535,60	7,089
535,80	7,095
535,99	7,112
536,19	7,111
536,39	7,103
536,59	7,110
536,79	7,111
536,99	7,108
537,19	7,090
537,39	7,089
537,59	7,086
537,78	7,088
537,98	7,098
538,18	7,087
538,38	7,099
538,58	7,128
538,78	7,112
538,98	7,121
539,18	7,129
539,37	7,154
539,57	7,159
539,77	7,180
539,97	7,197
540,17	7,217
540,37	7,252
540,57	7,263
540,77	7,262
540,96	7,283
541,16	7,301
541,36	7,297
541,56	7,306
541,76	7,311
541,96	7,311
542,16	7,335
542,35	7,339
542,55	7,327
542,75	7,327
542,95	7,340
543,15	7,342
543,35	7,343
543,55	7,357
543,74	7,370
543,94	7,369
544,14	7,370
544,34	7,335
544,54	7,320
544,74	7,285
544,93	7,249
545,13	7,221
545,33	7,189
545,53	7,161
545,73	7,143
545,93	7,123
546,12	7,115
546,32	7,109
546,52	7,096
546,72	7,088
546,92	7,112
547,11	7,134
547,31	7,168
547,51	7,201
547,71	7,229
547,91	7,228
548,11	7,240
548,30	7,265
548,50	7,299
548,70	7,335
548,90	7,325
549,10	7,316
549,29	7,318
549,49	7,330
549,69	7,341
549,89	7,340
550,09	7,370
550,28	7,374
550,48	7,354
550,68	7,351
550,88	7,339
551,08	7,373
551,27	7,382
551,47	7,399
551,67	7,385
551,87	7,421
552,07	7,436
552,26	7,450
552,46	7,455
552,66	7,481
552,86	7,484
553,05	7,508
553,25	7,496
553,45	7,502
553,65	7,509
553,85	7,504
554,04	7,426
554,24	7,433
554,44	7,432
554,64	7,438
554,83	7,451
555,03	7,452
555,23	7,455
555,43	7,452
555,62	7,448
555,82	7,458
556,02	7,472
556,22	7,520
556,41	7,511
556,61	7,521
556,81	7,529
557,01	7,513
557,21	7,504
557,40	7,509
557,60	7,528
557,80	7,547
557,99	7,531
558,19	7,559
558,39	7,568
558,59	7,581
558,78	7,561
558,98	7,568
559,18	7,590
559,38	7,624
559,57	7,646
559,77	7,651
559,97	7,634
560,17	7,655
560,36	7,686
560,56	7,692
560,76	7,707
560,95	7,726
561,15	7,725
561,35	7,722
561,55	7,707
561,74	7,693
561,94	7,706
562,14	7,721
562,34	7,702
562,53	7,652
562,73	7,659
562,93	7,657
563,12	7,674
563,32	7,671
563,52	7,678
563,71	7,685
563,91	7,699
564,11	7,708
564,31	7,725
564,50	7,739
564,70	7,767
564,90	7,780
565,09	7,793
565,29	7,802
565,49	7,807
565,68	7,805
565,88	7,795
566,08	7,797
566,27	7,788
566,47	7,789
566,67	7,811
566,87	7,821
567,06	7,807
567,26	7,807
567,46	7,803
567,65	7,793
567,85	7,805
568,05	7,808
568,24	7,809
568,44	7,823
568,64	7,771
568,83	7,759
569,03	7,753
569,23	7,770
569,42	7,774
569,62	7,771
569,82	7,796
570,01	7,795
570,21	7,830
570,41	7,843
570,60	7,851
570,80	7,914
571,00	7,906
571,19	7,920
571,39	7,916
571,58	7,915
571,78	7,915
571,98	7,921
572,17	7,919
572,37	7,906
572,57	7,893
572,76	7,897
572,96	7,893
573,16	7,911
573,35	7,906
573,55	7,923
573,74	7,940
573,94	7,974
574,14	7,978
574,33	8,002
574,53	8,010
574,73	8,028
574,92	8,033
575,12	8,052
575,32	8,053
575,51	8,057
575,71	8,033
575,90	8,042
576,10	8,026
576,30	8,015
576,49	7,990
576,69	7,987
576,88	7,975
577,08	7,976
577,28	7,970
577,47	7,920
577,67	7,905
577,86	7,928
578,06	7,909
578,26	7,912
578,45	7,931
578,65	7,949
578,84	7,951
579,04	7,958
579,24	7,946
579,43	7,958
579,63	8,016
579,82	8,019
580,02	8,031
580,22	8,037
580,41	8,030
580,61	8,042
580,80	8,033
581,00	8,012
581,19	8,019
581,39	8,021
581,59	8,031
581,78	8,037
581,98	8,047
582,17	8,051
582,37	8,045
582,56	8,067
582,76	8,050
582,96	8,068
583,15	8,088
583,35	8,086
583,54	8,088
583,74	8,069
583,93	8,083
584,13	8,093
584,33	8,097
584,52	8,116
584,72	8,121
584,91	8,160
585,11	8,180
585,30	8,242
585,50	8,246
585,69	8,260
585,89	8,272
586,08	8,294
586,28	8,299
586,48	8,298
586,67	8,321
586,87	8,318
587,06	8,293
587,26	8,288
587,45	8,160
587,65	8,150
587,84	8,174
588,04	8,187
588,23	8,167
588,43	8,171
588,62	8,208
588,82	8,194
589,01	8,197
589,21	8,200
589,40	8,202
589,60	8,307
589,79	8,357
589,99	8,371
590,19	8,365
590,38	8,378
590,58	8,381
590,77	8,353
590,97	8,356
591,16	8,364
591,36	8,379
591,55	8,392
591,75	8,409
591,94	8,381
592,14	8,369
592,33	8,361
592,53	8,357
592,72	8,378
592,92	8,385
593,11	8,369
593,31	8,373
593,50	8,362
593,69	8,343
593,89	8,344
594,08	8,345
594,28	8,334
594,47	8,348
594,67	8,344
594,86	8,328
595,06	8,330
595,25	8,370
595,45	8,387
595,64	8,389
595,84	8,392
596,03	8,383
596,23	8,408
596,42	8,431
596,62	8,441
596,81	8,449
597,01	8,445
597,20	8,441
597,39	8,416
597,59	8,389
597,78	8,407
597,98	8,423
598,17	8,397
598,37	8,400
598,56	8,416
598,76	8,424
598,95	8,438
599,15	8,457
599,34	8,458
599,53	8,495
599,73	8,537
599,92	8,560
600,12	8,575
600,31	8,597
600,51	8,593
600,70	8,565
600,89	8,548
601,09	8,542
601,28	8,525
601,48	8,541
601,67	8,525
601,87	8,516
602,06	8,503
602,25	8,495
602,45	8,498
602,64	8,485
602,84	8,499
603,03	8,498
603,23	8,495
603,42	8,505
603,61	8,513
603,81	8,506
604,00	8,483
604,20	8,474
604,39	8,471
604,58	8,484
604,78	8,507
604,97	8,508
605,17	8,529
605,36	8,535
605,55	8,546
605,75	8,523
605,94	8,532
606,14	8,537
606,33	8,547
606,52	8,551
606,72	8,536
606,91	8,531
607,11	8,552
607,30	8,557
607,49	8,565
607,69	8,557
607,88	8,574
608,07	8,580
608,27	8,593
608,46	8,597
608,66	8,606
608,85	8,612
609,04	8,613
609,24	8,606
609,43	8,599
609,62	8,607
609,82	8,619
610,01	8,631
610,21	8,638
610,40	8,645
610,59	8,647
610,79	8,647
610,98	8,643
611,17	8,650
611,37	8,645
611,56	8,634
611,75	8,622
611,95	8,603
612,14	8,609
612,33	8,601
612,53	8,597
612,72	8,608
612,91	8,627
613,11	8,641
613,30	8,637
613,49	8,634
613,69	8,660
613,88	8,666
614,07	8,707
614,27	8,700
614,46	8,707
614,65	8,692
614,85	8,691
615,04	8,680
615,23	8,698
615,43	8,706
615,62	8,716
615,81	8,712
616,01	8,702
616,20	8,703
616,39	8,707
616,59	8,706
616,78	8,730
616,97	8,713
617,17	8,706
617,36	8,698
617,55	8,712
617,75	8,718
617,94	8,702
618,13	8,742
618,32	8,711
618,52	8,709
618,71	8,721
618,90	8,711
619,10	8,718
619,29	8,722
619,48	8,708
619,67	8,701
619,87	8,684
620,06	8,701
620,25	8,690
620,45	8,725
620,64	8,727
620,83	8,741
621,02	8,726
621,22	8,750
621,41	8,759
621,60	8,755
621,80	8,733
621,99	8,739
622,18	8,747
622,37	8,747
622,57	8,831
622,76	8,822
622,95	8,822
623,14	8,852
623,34	8,839
623,53	8,826
623,72	8,852
623,92	8,891
624,11	8,901
624,30	8,901
624,49	8,912
624,69	8,813
624,88	8,833
625,07	8,830
625,26	8,847
625,46	8,848
625,65	8,869
625,84	8,871
626,03	8,851
626,23	8,872
626,42	8,883
626,61	8,892
626,80	8,918
626,99	8,906
627,19	8,902
627,38	8,893
627,57	8,914
627,76	8,908
627,96	8,917
628,15	8,930
628,34	8,899
628,53	8,911
628,72	8,904
628,92	8,900
629,11	8,888
629,30	8,897
629,49	8,897
629,69	8,899
629,88	8,898
630,07	8,349
630,26	8,341
630,45	8,363
630,65	8,347
630,84	8,343
631,03	8,400
631,22	8,424
631,41	8,443
631,61	8,439
631,80	8,435
631,99	8,452
632,18	8,992
632,37	9,018
632,57	9,005
632,76	8,990
632,95	8,969
633,14	8,908
633,33	8,903
633,53	8,886
633,72	8,877
633,91	8,887
634,10	8,886
634,29	8,897
634,48	8,883
634,68	8,907
634,87	8,920
635,06	8,962
635,25	8,962
635,44	8,981
635,63	8,983
635,83	8,994
636,02	8,974
636,21	8,978
636,40	8,981
636,59	8,965
636,78	8,967
636,98	8,971
637,17	8,957
637,36	8,976
637,55	8,966
637,74	8,977
637,93	8,987
638,13	9,011
638,32	8,987
638,51	8,992
638,70	9,014
638,89	8,993
639,08	9,010
639,27	9,012
639,47	9,005
639,66	9,014
639,85	8,804
640,04	8,805
640,23	8,796
640,42	8,824
640,61	8,832
640,80	8,846
641,00	8,871
641,19	8,870
641,38	8,844
641,57	8,839
641,76	8,808
641,95	9,029
642,14	9,048
642,33	9,057
642,52	9,055
642,72	9,038
642,91	9,026
643,10	9,028
643,29	9,034
643,48	9,064
643,67	9,072
643,86	9,120
644,05	9,115
644,24	9,111
644,44	9,131
644,63	9,133
644,82	9,147
645,01	9,157
645,20	9,160
645,39	9,181
645,58	9,181
645,77	9,171
645,96	9,170
646,15	9,168
646,34	9,181
646,54	9,174
646,73	9,126
646,92	9,134
647,11	9,115
647,30	9,132
647,49	9,114
647,68	9,134
647,87	9,147
648,06	9,155
648,25	9,167
648,44	9,147
648,63	9,120
648,82	9,182
649,01	9,179
649,21	9,194
649,40	9,170
649,59	9,173
649,78	9,163
649,97	9,168
650,16	9,161
650,35	9,142
650,54	9,142
650,73	9,176
650,92	9,190
651,11	9,205
651,30	9,214
651,49	9,223
651,68	9,232
651,87	9,236
652,06	9,241
652,25	9,226
652,44	9,236
652,63	9,221
652,82	9,189
653,01	9,175
653,20	9,156
653,39	9,134
653,58	9,131
653,78	9,135
653,97	9,149
654,16	9,143
654,35	9,171
654,54	9,179
654,73	9,211
654,92	9,238
655,11	9,271
655,30	9,302
655,49	9,331
655,68	9,344
655,87	9,314
656,06	9,308
656,25	9,267
656,44	9,261
656,63	9,251
656,82	9,242
657,01	9,235
657,20	9,207
657,39	9,202
657,58	9,188
657,77	9,188
657,96	9,195
658,15	9,183
658,34	9,222
658,53	9,197
658,72	9,204
658,91	9,206
659,10	9,208
659,29	9,213
659,48	9,177
659,66	9,177
659,85	9,159
660,04	9,159
660,23	9,182
660,42	9,171
660,61	9,199
660,80	9,205
660,99	9,205
661,18	9,183
661,37	9,148
661,56	9,150
661,75	9,144
661,94	9,134
662,13	9,144
662,32	9,117
662,51	9,127
662,70	9,104
662,89	9,071
663,08	9,076
663,27	9,094
663,46	9,096
663,65	9,091
663,84	9,102
664,03	9,117
664,21	9,116
664,40	9,116
664,59	9,114
664,78	9,139
664,97	9,157
665,16	9,133
665,35	9,127
665,54	9,127
665,73	9,140
665,92	9,132
666,11	9,139
666,30	9,135
666,49	9,142
666,68	9,151
666,86	9,146
667,05	9,148
667,24	9,171
667,43	9,166
667,62	9,175
667,81	9,180
668,00	9,186
668,19	9,177
668,38	9,146
668,57	9,144
668,76	9,145
668,94	9,155
669,13	9,157
669,32	9,140
669,51	9,138
669,70	9,146
669,89	9,152
670,08	9,136
670,27	9,135
670,46	9,169
670,65	9,160
670,83	9,163
671,02	9,146
671,21	9,156
671,40	9,164
671,59	9,168
671,78	9,179
671,97	9,168
672,16	9,160
672,34	9,160
672,53	9,172
672,72	9,203
672,91	9,188
673,10	9,188
673,29	9,188
673,48	9,183
673,67	9,184
673,85	9,188
674,04	9,199
674,23	9,221
674,42	9,233
674,61	9,237
674,80	9,228
674,99	9,231
675,17	9,216
675,36	9,216
675,55	9,232
675,74	9,240
675,93	9,192
676,12	9,213
676,30	9,224
676,49	9,224
676,68	9,220
676,87	9,225
677,06	9,231
677,25	9,258
677,43	9,285
677,62	9,276
677,81	9,297
678,00	9,353
678,19	9,331
678,38	9,330
678,56	9,333
678,75	9,352
678,94	9,343
679,13	9,357
679,32	9,365
679,50	9,344
679,69	9,336
679,88	9,333
680,07	9,340
680,26	9,350
680,45	9,361
680,63	9,359
680,82	9,356
681,01	9,383
681,20	9,405
681,39	9,407
681,57	9,427
681,76	9,471
681,95	9,473
682,14	9,459
682,33	9,475
682,51	9,481
682,70	9,720
682,89	9,716
683,08	9,721
683,26	9,683
683,45	9,673
683,64	9,652
683,83	9,655
684,02	9,668
684,20	9,686
684,39	9,667
684,58	9,676
684,77	9,463
684,95	9,468
685,14	9,481
685,33	9,518
685,52	9,521
685,71	9,531
685,89	9,528
686,08	9,531
686,27	9,564
686,46	9,603
686,64	9,614
686,83	9,634
687,02	9,671
687,21	9,656
687,39	9,659
687,58	9,678
687,77	9,695
687,96	9,702
688,14	9,700
688,33	9,679
688,52	9,673
688,70	9,669
688,89	9,633
689,08	9,612
689,27	9,630
689,45	9,635
689,64	9,652
689,83	9,670
690,02	9,692
690,20	9,690
690,39	9,693
690,58	9,703
690,77	9,713
690,95	9,746
691,14	9,744
691,33	9,758
691,51	9,770
691,70	9,773
691,89	9,784
692,08	9,777
692,26	9,803
692,45	9,830
692,64	9,829
692,82	9,799
693,01	9,816
693,20	9,828
693,38	9,823
693,57	9,843
693,76	9,847
693,95	9,837
694,13	9,850
694,32	9,859
694,51	9,868
694,69	9,858
694,88	9,909
695,07	9,905
695,25	9,932
695,44	9,946
695,63	9,931
695,81	9,957
696,00	9,987
696,19	9,979
696,37	9,990
696,56	9,988
696,75	10,004
696,93	10,012
697,12	10,031
697,31	10,020
697,49	10,040
697,68	10,049
697,87	10,014
698,05	9,992
698,24	10,135
698,43	10,131
698,61	10,122
698,80	10,134
698,99	10,151
699,17	10,139
699,36	10,145
699,55	10,146
699,73	10,147
699,92	10,191
700,11	10,219
700,29	10,090
700,48	10,113
700,66	10,120
700,85	10,117
701,04	10,108
701,22	10,103
701,41	10,114
701,60	10,096
701,78	10,093
701,97	10,091
702,16	10,081
702,34	10,068
702,53	10,043
702,71	10,043
702,90	10,064
703,09	10,073
703,27	10,083
703,46	10,064
703,64	10,013
703,83	9,985
704,02	9,984
704,20	9,969
704,39	9,974
704,57	9,986
704,76	9,997
704,95	9,971
705,13	9,958
705,32	9,945
705,50	9,963
705,69	10,021
705,88	10,072
706,06	10,061
706,25	10,074
706,43	10,117
706,62	10,107
706,81	10,109
706,99	10,133
707,18	10,134
707,36	10,175
707,55	10,193
707,73	10,225
707,92	10,211
708,11	10,195
708,29	10,207
708,48	10,163
708,66	10,171
708,85	10,169
709,03	10,170
709,22	10,149
709,41	10,126
709,59	10,091
709,78	10,057
709,96	10,092
710,15	10,135
710,33	10,118
710,52	10,106
710,71	10,080
710,89	10,092
711,08	10,097
711,26	10,107
711,45	10,129
711,63	10,142
711,82	10,147
712,00	10,123
712,19	10,118
712,37	10,128
712,56	10,182
712,74	10,209
712,93	10,189
713,12	10,195
713,30	10,195
713,49	10,167
713,67	10,173
713,86	10,191
714,04	10,201
714,23	10,173
714,41	10,181
714,60	10,164
714,78	10,151
714,97	10,184
715,15	10,176
715,34	10,207
715,52	10,235
715,71	10,232
715,89	10,213
716,08	10,235
716,26	10,278
716,45	10,281
716,63	10,310
716,82	10,345
717,00	10,347
717,19	10,377
717,37	10,374
717,56	10,372
717,74	10,388
717,93	10,412
718,11	10,327
718,30	10,312
718,48	10,312
718,67	10,300
718,85	10,310
719,04	10,301
719,22	10,277
719,41	10,287
719,59	10,278
719,78	10,250
719,96	10,248
720,14	10,319
720,33	10,325
720,51	10,321
720,70	10,325
720,88	10,328
721,07	10,342
721,25	10,345
721,44	10,330
721,62	10,330
721,81	10,358
721,99	10,350
722,18	10,351
722,36	10,324
722,54	10,319
722,73	10,306
722,91	10,293
723,10	10,271
723,28	10,267
723,47	10,299
723,65	10,286
723,84	10,262
724,02	10,292
724,20	10,286
724,39	10,322
724,57	10,335
724,76	10,325
724,94	10,321
725,13	10,330
725,31	10,348
725,49	10,312
725,68	10,334
725,86	10,387
726,05	10,393
726,23	10,399
726,41	10,363
726,60	10,363
726,78	10,369
726,97	10,375
727,15	10,385
727,34	10,396
727,52	10,418
727,70	10,428
727,89	10,408
728,07	10,398
728,26	10,439
728,44	10,481
728,62	10,492
728,81	10,514
728,99	10,508
729,17	10,525
729,36	10,486
729,54	10,474
729,73	10,500
729,91	10,510
730,09	10,506
730,28	10,462
730,46	10,436
730,65	10,417
730,83	10,414
731,01	10,435
731,20	10,404
731,38	10,427
731,56	10,441
731,75	10,412
731,93	10,373
732,12	10,358
732,30	10,362
732,48	10,361
732,67	10,398
732,85	10,372
733,03	10,340
733,22	10,355
733,40	10,367
733,58	10,358
733,77	10,339
733,95	10,375
734,13	10,420
734,32	10,415
734,50	10,441
734,68	10,431
734,87	10,451
735,05	10,459
735,23	10,473
735,42	10,477
735,60	10,495
735,78	10,503
735,97	10,461
736,15	10,415
736,33	10,428
736,52	10,425
736,70	10,417
736,88	10,408
737,07	10,427
737,25	10,400
737,43	10,387
737,62	10,350
737,80	10,359
737,98	10,373
738,17	10,384
738,35	10,416
738,53	10,417
738,72	10,402
738,90	10,399
739,08	10,375
739,26	10,369
739,45	10,383
739,63	10,397
739,81	10,404
740,00	10,434
740,18	10,441
740,36	10,396
740,54	10,368
740,73	10,383
740,91	10,544
741,09	10,546
741,28	10,565
741,46	10,542
741,64	10,529
741,82	10,524
742,01	10,535
742,19	10,523
742,37	10,538
742,56	10,567
742,74	10,578
742,92	10,463
743,10	10,465
743,29	10,449
743,47	10,449
743,65	10,501
743,83	10,509
744,02	10,530
744,20	10,544
744,38	10,528
744,56	10,512
744,75	10,508
744,93	10,506
745,11	10,522
745,29	10,530
745,48	10,550
745,66	10,516
745,84	10,529
746,02	10,509
746,21	10,500
746,39	10,535
746,57	10,526
746,75	10,529
746,94	10,520
747,12	10,531
747,30	10,507
747,48	10,517
747,66	10,543
747,85	10,526
748,03	10,496
748,21	10,492
748,39	10,497
748,58	10,526
748,76	10,557
748,94	10,556
749,12	10,573
749,30	10,602
749,49	10,586
749,67	10,578
749,85	10,578
750,03	10,596
750,21	10,616
750,40	10,632
750,58	10,610
750,76	10,591
750,94	10,587
751,12	10,563
751,31	10,563
751,49	10,586
751,67	10,584
751,85	10,609
752,03	10,633
752,22	10,634
752,40	10,594
752,58	10,622
752,76	10,597
752,94	10,601
753,12	10,605
753,31	10,590
753,49	10,568
753,67	10,585
753,85	10,595
754,03	10,596
754,21	10,585
754,40	10,599
754,58	10,622
754,76	10,623
754,94	10,609
755,12	10,625
755,30	10,653
755,49	10,657
755,67	10,670
755,85	10,672
756,03	10,674
756,21	10,694
756,39	10,707
756,57	10,688
756,76	10,837
756,94	10,860
757,12	10,870
757,30	10,885
757,48	10,886
757,66	10,864
757,84	10,855
758,02	10,849
758,21	10,849
758,39	10,845
758,57	10,859
758,75	10,782
758,93	10,802
759,11	10,826
759,29	10,868
759,47	10,912
759,66	10,958
759,84	10,989
760,02	11,036
760,20	11,073
760,38	11,114
760,56	11,129
760,74	11,105
760,92	11,130
761,10	11,119
761,29	11,115
761,47	11,094
761,65	11,061
761,83	11,033
762,01	11,032
762,19	11,026
762,37	11,039
762,55	11,047
762,73	11,054
762,91	11,019
763,09	11,023
763,28	11,012
763,46	11,019
763,64	11,041
763,82	11,000
764,00	10,977
764,18	10,984
764,36	10,954
764,54	10,947
764,72	10,954
764,90	10,963
765,08	10,949
765,26	10,968
765,44	10,993
765,62	10,997
765,80	11,063
765,99	11,051
766,17	11,031
766,35	11,055
766,53	11,065
766,71	11,053
766,89	11,045
767,07	11,027
767,25	10,985
767,43	10,970
767,61	10,962
767,79	10,941
767,97	10,928
768,15	10,914
768,33	10,868
768,51	10,841
768,69	10,845
768,87	10,870
769,05	10,896
769,23	10,892
769,41	10,861
769,59	10,863
769,77	10,869
769,95	10,888
770,13	10,904
770,31	10,917
770,49	10,938
770,67	10,922
770,85	10,893
771,03	10,881
771,21	10,892
771,39	10,913
771,57	10,886
771,75	10,880
771,93	10,901
772,11	10,921
772,29	10,934
772,47	10,917
772,65	10,931
772,83	10,944
773,01	10,975
773,19	10,988
773,37	10,980
773,55	10,974
773,73	10,997
773,91	10,984
774,09	10,963
774,27	10,957
774,45	10,962
774,63	10,982
774,81	10,994
774,99	10,980
775,17	10,998
775,35	11,025
775,53	11,043
775,71	11,037
775,89	11,053
776,07	11,032
776,25	11,034
776,43	11,033
776,61	10,994
776,79	10,991
776,97	11,011
777,15	10,975
777,33	10,973
777,51	10,989
777,69	10,992
777,87	10,961
778,04	11,015
778,22	11,043
778,40	11,053
778,58	11,069
778,76	11,079
778,94	11,047
779,12	11,074
779,30	11,087
779,48	11,071
779,66	11,043
779,84	11,067
780,02	11,003
780,20	10,971
780,38	10,969
780,56	10,937
780,73	10,943
780,91	10,938
781,09	10,929
781,27	10,901
781,45	10,924
781,63	10,964
781,81	10,938
781,99	10,961
782,17	10,955
782,35	10,839
782,53	10,903
782,70	10,870
782,88	10,887
783,06	10,881
783,24	10,886
783,42	11,070
783,60	11,069
783,78	11,145
783,96	11,156
784,14	11,208
784,31	11,333
784,49	11,294
784,67	11,299
784,85	11,324
785,03	11,326
785,21	11,345
785,39	11,159
785,57	11,101
785,74	11,049
785,92	11,041
786,10	11,017
786,28	11,027
786,46	11,059
786,64	11,073
786,82	11,058
786,99	11,070
787,17	11,056
787,35	11,076
787,53	11,166
787,71	11,157
787,89	11,166
788,07	11,158
788,24	11,124
788,42	11,110
788,60	11,120
788,78	11,129
788,96	11,160
789,14	11,173
789,31	11,166
789,49	11,122
789,67	11,133
789,85	11,165
790,03	11,183
790,21	11,187
790,38	11,188
790,56	11,172
790,74	11,146
790,92	11,078
791,10	11,082
791,28	11,063
791,45	11,067
791,63	11,058
791,81	11,040
791,99	11,024
792,17	11,069
792,34	11,089
792,52	11,100
792,70	11,135
792,88	11,212
793,06	11,201
793,23	11,233
793,41	11,244
793,59	11,270
793,77	11,273
793,95	11,270
794,12	11,258
794,30	11,249
794,48	11,249
794,66	11,282
794,84	11,261
795,01	11,245
795,19	11,198
795,37	11,180
795,55	11,153
795,72	11,164
795,90	11,199
796,08	11,187
796,26	11,195
796,44	11,225
796,61	11,178
796,79	11,141
796,97	11,159
797,15	11,203
797,32	11,239
797,50	11,263
797,68	11,263
797,86	11,263
798,03	11,295
798,21	11,267
798,39	11,274
798,57	11,307
798,74	11,361
798,92	11,372
799,10	11,269
799,28	11,244
799,45	11,255
799,63	11,220
799,81	11,178
799,98	11,186
800,16	11,195
800,34	11,191
800,52	11,158
800,69	11,124
800,87	11,106
801,05	11,159
801,23	11,185
801,40	11,166
801,58	11,200
801,76	11,224
801,93	11,230
802,11	11,249
802,29	11,232
802,47	11,251
802,64	11,218
802,82	11,282
803,00	11,305
803,17	11,300
803,35	11,336
803,53	11,342
803,70	11,388
803,88	11,381
804,06	11,384
804,24	11,379
804,41	11,338
804,59	11,367
804,77	11,284
804,94	11,295
805,12	11,322
805,30	11,284
805,47	11,289
805,65	11,254
805,83	11,228
806,00	11,257
806,18	11,258
806,36	11,263
806,53	11,247
806,71	11,320
806,89	11,335
807,06	11,253
807,24	11,296
807,42	11,270
807,59	11,308
807,77	11,329
807,95	11,305
808,12	11,311
808,30	11,322
808,48	11,362
808,65	11,330
808,83	11,302
809,01	11,327
809,18	11,304
809,36	11,295
809,53	11,280
809,71	11,254
809,89	11,234
810,06	11,142
810,24	11,169
810,42	11,175
810,59	11,189
810,77	11,244
810,95	11,302
811,12	11,330
811,30	11,341
811,47	11,380
811,65	11,352
811,83	11,318
812,00	11,394
812,18	11,406
812,35	11,361
812,53	11,367
812,71	11,386
812,88	11,357
813,06	11,323
813,24	11,336
813,41	11,297
813,59	11,352
813,76	11,414
813,94	11,480
814,11	11,494
814,29	11,561
814,47	11,578
814,64	11,532
814,82	11,527
814,99	11,529
815,17	11,564
815,35	11,537
815,52	11,416
815,70	11,412
815,87	11,377
816,05	11,323
816,22	11,286
816,40	11,280
816,58	11,282
816,75	11,306
816,93	11,348
817,10	11,266
817,28	11,274
817,45	11,420
817,63	11,416
817,81	11,438
817,98	11,442
818,16	11,402
818,33	11,390
818,51	11,393
818,68	11,427
818,86	11,396
819,03	11,424
819,21	11,430
819,38	11,433
819,56	11,366
819,74	11,375
819,91	11,412
820,09	11,453
820,26	11,462
820,44	11,458
820,61	11,369
820,79	11,341
820,96	11,365
821,14	11,362
821,31	11,371
821,49	11,473
821,66	11,448
821,84	11,463
822,01	11,458
822,19	11,419
822,36	11,460
822,54	11,479
822,71	11,499
822,89	11,509
823,06	11,507
823,24	11,472
823,41	11,477
823,59	11,463
823,76	11,436
823,94	11,460
824,11	11,520
824,29	11,470
824,46	11,540
824,64	11,571
824,81	11,533
824,99	11,547
825,16	11,542
825,34	11,512
825,51	11,330
825,69	11,340
825,86	11,350
826,04	11,254
826,21	11,267
826,39	11,144
826,56	11,123
826,74	11,146
826,91	11,126
827,09	11,094
827,26	11,072
827,43	11,269
827,61	11,259
827,78	11,263
827,96	11,337
828,13	11,330
828,31	11,390
828,48	11,337
828,66	11,345
828,83	11,350
829,01	11,381
829,18	11,371
829,35	11,343
829,53	11,379
829,70	11,413
829,88	11,435
830,05	11,432
830,23	11,471
830,40	11,531
830,57	11,509
830,75	11,486
830,92	11,459
831,10	11,508
831,27	11,532
831,45	11,479
831,62	11,381
831,79	11,352
831,97	11,411
832,14	11,367
832,32	11,417
832,49	11,486
832,66	11,556
832,84	11,623
833,01	11,618
833,19	11,618
833,36	11,673
833,53	11,703
833,71	11,678
833,88	11,630
834,06	11,688
834,23	11,672
834,40	11,672
834,58	11,617
834,75	11,591
834,93	11,604
835,10	11,672
835,27	11,704
835,45	11,674
835,62	11,802
835,79	11,825
835,97	11,841
836,14	11,763
836,32	11,691
836,49	11,688
836,66	11,668
836,84	11,621
837,01	11,536
837,18	11,424
837,36	11,443
837,53	11,391
837,71	11,317
837,88	11,309
838,05	11,364
838,23	11,389
838,40	11,336
838,57	11,344
838,75	11,320
838,92	11,328
839,09	11,427
839,27	11,384
839,44	11,364
839,61	11,457
839,79	11,387
839,96	11,426
840,13	11,439
840,31	11,509
840,48	11,520
840,65	11,557
840,83	11,526
841,00	11,479
841,17	11,585
841,35	11,496
841,52	11,461
841,69	11,396
841,86	11,284
842,04	11,237
842,21	11,277
842,38	11,242
842,56	11,258
842,73	11,293
842,90	11,330
843,08	11,240
843,25	11,256
843,42	11,310
843,60	11,403
843,77	11,419
843,94	11,504
844,11	11,470
844,29	11,495
844,46	11,467
844,63	11,497
844,81	11,443
844,98	11,547
845,15	11,639
845,32	11,626
845,50	11,684
845,67	11,745
845,84	11,712
846,01	11,708
846,19	11,717
846,36	11,726
846,53	11,633
846,71	11,662
846,88	11,871
847,05	11,845
847,22	11,817
847,40	11,307
847,57	11,298
847,74	11,344
847,91	11,365
848,09	11,350
848,26	11,428
848,43	11,514
848,60	11,529
848,78	12,488
848,95	12,520
849,12	12,532
849,29	12,985
849,46	12,957
849,64	12,936
849,81	12,815
849,98	12,797
850,15	12,754
850,33	12,766
850,50	12,671
850,67	11,454
850,84	11,395
851,02	11,392
851,19	11,369
851,36	11,411
851,53	11,396
851,70	11,531
851,88	11,580
852,05	11,594
852,22	11,553
852,39	11,643
852,56	11,719
852,74	11,750
852,91	11,657
853,08	11,689
853,25	11,626
853,42	11,656
853,60	11,632
853,77	11,617
853,94	11,579
854,11	11,516
854,28	11,524
854,45	11,446
854,63	11,457
854,80	11,546
854,97	11,573
855,14	11,644
855,31	11,597
855,49	11,572
855,66	11,572
855,83	11,578
856,00	11,636
856,17	11,624
856,34	11,623
856,52	11,602
856,69	11,589
856,86	11,625
857,03	11,620
857,20	11,594
857,37	11,631
857,54	11,644
857,72	11,628
857,89	11,647
858,06	11,645
858,23	11,582
858,40	11,611
858,57	11,641
858,74	11,618
858,92	11,622
859,09	11,704
859,26	11,682
859,43	11,689
859,60	11,702
859,77	11,714
859,94	11,774
860,11	11,869
860,29	12,215
860,46	12,144
860,63	12,165
860,80	12,134
860,97	12,035
861,14	12,034
861,31	11,993
861,48	11,963
861,65	11,973
861,83	11,984
862,00	11,969
862,17	11,629
862,34	11,749
862,51	11,704
862,68	11,656
862,85	11,703
863,02	11,682
863,19	11,672
863,36	11,718
863,54	11,718
863,71	11,627
863,88	11,580
864,05	11,483
864,22	11,362
864,39	11,390
864,56	11,049
864,73	11,200
864,90	11,254
865,07	11,277
865,24	11,224
865,41	11,179
865,58	11,148
865,75	11,201
865,93	11,283
866,10	11,249
866,27	11,289
866,44	11,612
866,61	11,410
866,78	11,363
866,95	11,578
867,12	11,627
867,29	11,702
867,46	11,752
867,63	11,693
867,80	11,725
867,97	11,800
868,14	11,711
868,31	11,797
868,48	11,921
868,65	11,914
868,82	11,728
868,99	11,774
869,16	11,757
869,33	11,776
869,50	11,780
869,67	11,716
869,84	11,791
870,01	11,746
870,18	11,714
870,35	11,727
870,52	11,372
870,69	11,319
870,86	11,325
871,03	11,289
871,20	11,309
871,37	11,373
871,54	11,410
871,71	11,330
871,88	11,357
872,05	11,350
872,22	11,320
872,39	11,709
872,56	11,752
872,73	11,768
872,90	11,849
873,07	11,863
873,24	11,795
873,41	11,801
873,58	11,853
873,75	11,963
873,92	11,988
874,09	11,967
874,26	11,976
874,43	11,924
874,60	11,823
874,77	11,699
874,94	11,649
875,11	11,720
875,28	11,707
875,45	11,685
875,62	11,522
875,79	11,451
875,96	11,418
876,13	11,283
876,30	11,336
876,47	11,348
876,64	11,401
876,81	11,354
876,97	11,297
877,14	11,343
877,31	11,347
877,48	11,432
877,65	11,561
877,82	11,505
877,99	11,605
878,16	11,621
878,33	11,662
878,50	11,562
878,67	11,618
878,84	11,645
879,01	11,572
879,18	11,489
879,34	11,466
879,51	11,381
879,68	11,490
879,85	11,555
880,02	11,470
880,19	11,452
880,36	11,530
880,53	11,491
880,70	11,538
880,87	11,441
881,03	11,623
881,20	11,652
881,37	11,714
881,54	11,671
881,71	11,710
881,88	11,806
882,05	11,814
882,22	11,828
882,39	11,825
882,55	11,891
882,72	12,031
882,89	11,994
883,06	11,936
883,23	11,926
883,40	11,971
883,57	11,387
883,74	11,305
883,90	11,229
884,07	11,291
884,24	11,196
884,41	11,058
884,58	11,011
884,75	10,954
884,92	10,972
885,08	10,964
885,25	10,964
885,42	11,584
885,59	11,632
885,76	11,740
885,93	11,640
886,10	11,778
886,26	11,839
886,43	11,792
886,60	11,824
886,77	11,884
886,94	12,048
887,11	12,011
887,27	11,844
887,44	11,894
887,61	11,941
887,78	11,959
887,95	12,016
888,11	12,022
888,28	12,057
888,45	12,097
888,62	12,052
888,79	11,979
888,96	11,917
889,12	12,007
889,29	12,016
889,46	11,986
889,63	12,006
889,80	12,022
889,96	12,006
890,13	12,036
890,30	11,974
890,47	12,005
890,64	11,928
890,80	11,990
890,97	11,971
891,14	11,917
891,31	11,886
891,47	11,838
891,64	11,838
891,81	11,838
891,98	11,838
892,15	11,838
>>>>>End Processed Spectral Data<<<<<
